Wavelength (nm),Simulation
-376066.25,0.0014479772118932976
-187700.34375,0.0014479371285763905
-125059.7890625,0.0014478973108827471
-93767.203125,0.001447857732408929
-75000.5,0.0014478182603900364
-62493.05078125,0.0014477791308681355
-53560.96484375,0.0014477401108387228
-46862.88671875,0.001447701312177608
-41653.8515625,0.0014476627844671756
-37486.99609375,0.0014476243626041561
-34077.9921875,0.0014475861779047652
-31237.322265625,0.001447548251024436
-28833.798828125,0.0014475104803683444
-26773.720703125,0.001447472940707291
-24988.38671875,0.0014474355541861804
-23426.267578125,0.0014473983789860408
-22047.96484375,0.0014473614387998691
-20822.837890625,0.001447324612358775
-19726.6953125,0.0014472880789724821
-18740.185546875,0.0014472516462463775
-17847.646484375,0.0014472154677409898
-17036.259765625,0.0014471794364873444
-16295.4384765625,0.0014471436154798397
-15616.361328125,0.0014471078972821839
-14991.619140625,0.0014470724924209079
-14414.939453125,0.0014470372239696087
-13880.9833984375,0.0014470020906665292
-13385.1708984375,0.001446967151113282
-12923.5576171875,0.0014469324473217115
-12492.7216796875,0.0014468978642849808
-12089.6845703125,0.0014468635054204527
-11711.83984375,0.0014468292688996445
-11356.8974609375,0.0014467952207545182
-11022.8369140625,0.0014467613890241234
-10707.8662109375,0.00144672766229997
-10410.396484375,0.0014466942141437746
-10129.0078125,0.0014466608594510785
-9862.4296875,0.0014466276586927644
-9609.5244140625,0.0014465946137381038
-9369.2646484375,0.0014465617773005083
-9140.7265625,0.00144652911573312
-8923.072265625,0.0014464966143154362
-8715.5419921875,0.0014464642296336632
-8517.4453125,0.001446432097069678
-8328.154296875,0.0014464000610067552
-8147.09326171875,0.0014463681537365343
-7973.73779296875,0.0014463364827420383
-7807.60595703125,0.001446304903762357
-7648.25537109375,0.0014462734866614556
-7495.27978515625,0.0014462422626094114
-7348.30322265625,0.0014462111893607222
-7206.97998046875,0.0014461801989206938
-7070.990234375,0.001446149438027018
-6940.03759765625,0.001446118818309957
-6813.8466796875,0.001446088346218493
-6692.1630859375,0.0014460580391368364
-6574.74951171875,0.0014460278085083212
-6461.384765625,0.001445997764479682
-6351.86328125,0.0014459678839187022
-6245.99267578125,0.001445938172993973
-6143.59375,0.0014459085401579968
-6044.49755859375,0.001445879110371472
-5948.5478515625,0.0014458498338183537
-5855.5966796875,0.001445820647223853
-5765.505859375,0.0014457915810103387
-5678.14501953125,0.001445762732613509
-5593.39208984375,0.0014457339973542442
-5511.1318359375,0.0014457053704659065
-5431.25634765625,0.0014456769044282505
-5353.6630859375,0.0014456485434902989
-5278.255859375,0.001445620337140974
-5204.94287109375,0.0014455922730898265
-5133.638671875,0.0014455643618982315
-5064.26220703125,0.0014455366047344824
-4996.7353515625,0.001445508926080073
-4930.98583984375,0.00144548141430474
-4866.9443359375,0.0014454539519248664
-4804.54443359375,0.0014454267108665586
-4743.724609375,0.001445399592806215
-4684.42578125,0.0014453725560123834
-4626.5908203125,0.0014453456784336224
-4570.16650390625,0.0014453188581479862
-4515.10205078125,0.0014452922450709268
-4461.34814453125,0.0014452657047552013
-4408.85986328125,0.0014452393363655822
-4357.591796875,0.001445213103217646
-4307.50244140625,0.0014451869433918245
-4258.5517578125,0.0014451609501646898
-4210.70068359375,0.0014451349878272415
-4163.91357421875,0.0014451092573727336
-4118.154296875,0.0014450835917818943
-4073.39013671875,0.0014450580444691126
-4029.588623046875,0.001445032576787232
-3986.718994140625,0.001445007354493768
-3944.751953125,0.0014449821492106604
-3903.6591796875,0.0014449570691686413
-3863.413818359375,0.00144493210927395
-3823.989990234375,0.0014449073214455603
-3785.3623046875,0.0014448825462347427
-3747.50732421875,0.0014448579068263893
-3710.402099609375,0.001444833460373429
-3674.0244140625,0.001444809063409392
-3638.35302734375,0.0014447847470108902
-3603.36767578125,0.0014447606245024172
-3569.048583984375,0.00144473649867599
-3535.377197265625,0.0014447125480468912
-3502.335205078125,0.001444688761446233
-3469.9052734375,0.0014446650115299985
-3438.070068359375,0.0014446414072298945
-3406.81396484375,0.0014446178788221522
-3376.12109375,0.001444594442102102
-3345.97607421875,0.0014445711098742438
-3316.36474609375,0.0014445479116730428
-3287.27294921875,0.001444524828151555
-3258.68701171875,0.0014445018363177596
-3230.593994140625,0.0014444790065964027
-3202.9814453125,0.0014444561787910477
-3175.836669921875,0.0014444334804793704
-3149.148193359375,0.0014444108736684587
-3122.904541015625,0.0014443883863038984
-3097.094482421875,0.0014443660111422684
-3071.707763671875,0.0014443437086952408
-3046.73388671875,0.001444321534900719
-3022.162841796875,0.001444299392556665
-2997.98486328125,0.0014442774301765778
-2974.1904296875,0.001444255538595091
-2950.77099609375,0.001444233716643911
-2927.717529296875,0.0014442120450755007
-2905.021484375,0.0014441904252391368
-2882.674560546875,0.0014441688696121965
-2860.668701171875,0.0014441474913789777
-2838.996337890625,0.0014441261393155378
-2817.650146484375,0.001444104931139155
-2796.622314453125,0.0014440837801624334
-2775.906005859375,0.0014440627209668675
-2755.494384765625,0.0014440417708899368
-2735.380859375,0.0014440208921723873
-2715.55859375,0.0014440001156571737
-2696.021728515625,0.0014439794221842788
-2676.763916015625,0.0014439588032485247
-2657.779296875,0.0014439382967493593
-2639.062255859375,0.0014439178874055014
-2620.606689453125,0.0014438975782077824
-2602.40771484375,0.0014438773327989012
-2584.45947265625,0.0014438571390753348
-2566.75732421875,0.0014438370220853012
-2549.2958984375,0.001443817042626806
-2532.070556640625,0.0014437971518184397
-2515.076416015625,0.0014437773040967463
-2498.308837890625,0.001443757613533926
-2481.763427734375,0.0014437379670858778
-2465.435546875,0.0014437184087739083
-2449.3212890625,0.0014436988514900378
-2433.416259765625,0.0014436795018820617
-2417.71630859375,0.0014436601464793487
-2402.2177734375,0.0014436409475812645
-2386.916748046875,0.001443621780414038
-2371.809326171875,0.0014436026936254205
-2356.89208984375,0.0014435836959075178
-2342.1611328125,0.0014435647713715346
-2327.61328125,0.001443545912914245
-2313.244873046875,0.0014435271746510148
-2299.052978515625,0.0014435085061115546
-2285.033935546875,0.0014434899303813493
-2271.18505859375,0.001443471363016127
-2257.5029296875,0.001443452950332995
-2243.984619140625,0.0014434345367619601
-2230.627197265625,0.0014434162590868525
-2217.427978515625,0.0014433979891692154
-2204.384033203125,0.0014433798658023444
-2191.49267578125,0.0014433617918776643
-2178.751220703125,0.0014433437641706843
-2166.156982421875,0.0014433258610505486
-2153.70751953125,0.001443308031532918
-2141.400390625,0.0014432901951457204
-2129.233154296875,0.0014432725613406563
-2117.203369140625,0.001443254936367893
-2105.30859375,0.0014432373364900793
-2093.546875,0.0014432198918551374
-2081.915771484375,0.0014432024381075038
-2070.413330078125,0.0014431851213773596
-2059.037109375,0.001443167886708168
-2047.785400390625,0.0014431506051202996
-2036.656005859375,0.0014431334923275102
-2025.6468505859375,0.0014431164351455027
-2014.7559814453125,0.001443099465071476
-2003.981689453125,0.0014430825322893854
-1993.322021484375,0.0014430656553517352
-1982.775146484375,0.0014430489103845455
-1972.33935546875,0.001443032163735013
-1962.0126953125,0.0014430154946601843
-1951.793701171875,0.001442998899795374
-1941.6806640625,0.001442982369186719
-1931.6717529296875,0.001442965947322845
-1921.765625,0.001442949528870389
-1911.96044921875,0.0014429332385563895
-1902.2548828125,0.0014429169531959556
-1892.6474609375,0.001442900767327416
-1883.136474609375,0.0014428846502947436
-1873.7205810546875,0.001442868560366486
-1864.3984375,0.0014428525826411587
-1855.1685791015625,0.0014428366227206275
-1846.0296630859375,0.0014428207330379162
-1836.9803466796875,0.0014428048770487962
-1828.019287109375,0.0014427891666758074
-1819.145263671875,0.0014427734640602887
-1810.35693359375,0.0014427578585066141
-1801.6531982421875,0.0014427422945909277
-1793.03271484375,0.0014427267712384
-1784.4942626953125,0.0014427113388725888
-1776.036865234375,0.0014426959525375503
-1767.6591796875,0.001442680608214355
-1759.3602294921875,0.0014426653574013898
-1751.138671875,0.0014426501986967036
-1742.9937744140625,0.0014426349926060227
-1734.9241943359375,0.0014426199495624157
-1726.9290771484375,0.0014426048904430868
-1719.0072021484375,0.0014425899017952361
-1711.15771484375,0.0014425750229202655
-1703.379638671875,0.001442560172551661
-1695.671875,0.0014425453650828031
-1688.0335693359375,0.0014425306362167477
-1680.4638671875,0.0014425159184728485
-1672.961669921875,0.0014425013196612518
-1665.526123046875,0.0014424867303829319
-1658.156494140625,0.0014424722150809712
-1650.8516845703125,0.0014424577641753615
-1643.6109619140625,0.0014424433489260767
-1636.43359375,0.0014424289936336263
-1629.3184814453125,0.001442414740870634
-1622.2650146484375,0.0014424005027346796
-1615.2724609375,0.0014423863118445237
-1608.33984375,0.0014423721692749963
-1601.4664306640625,0.0014423580944665062
-1594.651611328125,0.0014423440719508432
-1587.89453125,0.0014423300797173546
-1581.1944580078125,0.001442316191742398
-1574.5506591796875,0.0014423023154503793
-1567.9625244140625,0.0014422884949560695
-1561.42919921875,0.0014422747329231782
-1554.9501953125,0.0014422610690269606
-1548.524658203125,0.0014422473800357934
-1542.152099609375,0.0014422337431037953
-1535.8316650390625,0.001442220195382707
-1529.5628662109375,0.001442206742059752
-1523.3450927734375,0.001442193232565235
-1517.1776123046875,0.0014421798406477992
-1511.059814453125,0.0014421665339223425
-1504.9912109375,0.0014421531938304164
-1498.97119140625,0.0014421399659881532
-1492.9991455078125,0.0014421267615117642
-1487.074462890625,0.0014421135938599938
-1481.196533203125,0.0014421004792487591
-1475.364990234375,0.0014420873910876944
-1469.5792236328125,0.0014420744300369884
-1463.838623046875,0.0014420614237032174
-1458.142578125,0.0014420485202260268
-1452.4908447265625,0.0014420356550688706
-1446.8826904296875,0.00144202285898124
-1441.317626953125,0.0014420100778945008
-1435.7952880859375,0.0014419973529793248
-1430.3150634765625,0.0014419846724125786
-1424.8765869140625,0.0014419720539523278
-1419.479248046875,0.0014419594316600736
-1414.1226806640625,0.0014419468544172257
-1408.8062744140625,0.0014419344111543035
-1403.52978515625,0.0014419219761629008
-1398.292724609375,0.0014419095803794358
-1393.094482421875,0.0014418971978677878
-1387.934814453125,0.0014418849286806322
-1382.813232421875,0.0014418726073408441
-1377.729248046875,0.001441860375959674
-1372.6826171875,0.0014418482447246424
-1367.6727294921875,0.0014418360732535752
-1362.6993408203125,0.001441824012069436
-1357.761962890625,0.0014418119456046095
-1352.8602294921875,0.001441799926292118
-1347.9937744140625,0.0014417880043218604
-1343.1622314453125,0.0014417760735660346
-1338.3651123046875,0.001441764202907238
-1333.6021728515625,0.0014417523824383402
-1328.873046875,0.001441740614916515
-1324.1773681640625,0.001441728809962558
-1319.5146484375,0.0014417171318853012
-1314.884765625,0.0014417054589018047
-1310.287109375,0.0014416937969470016
-1305.7216796875,0.001441682243269661
-1301.1878662109375,0.00144167067459143
-1296.6854248046875,0.0014416591759173585
-1292.2139892578125,0.0014416477057029233
-1287.7733154296875,0.0014416363041374275
-1283.3631591796875,0.0014416249374805488
-1278.9830322265625,0.0014416136363883145
-1274.6326904296875,0.0014416023288938307
-1270.311767578125,0.001441591038456435
-1266.0201416015625,0.001441579840641367
-1261.7574462890625,0.0014415686080578773
-1257.5233154296875,0.001441557507631775
-1253.3175048828125,0.0014415463908495605
-1249.1397705078125,0.00144153533561306
-1244.98974609375,0.0014415243067799977
-1240.8671875,0.0014415132842557218
-1236.7718505859375,0.001441502393328052
-1232.7034912109375,0.0014414914249658742
-1228.6617431640625,0.0014414806008178742
-1224.646484375,0.0014414698071389754
-1220.6573486328125,0.0014414589842994647
-1216.694091796875,0.001441448230482748
-1212.756591796875,0.0014414375177432392
-1208.844482421875,0.0014414268545861167
-1204.9573974609375,0.0014414161991397323
-1201.0953369140625,0.0014414055807048939
-1197.2579345703125,0.0014413950360594877
-1193.4449462890625,0.00144138450393819
-1189.65625,0.0014413740040150683
-1185.8914794921875,0.001441363485632905
-1182.150390625,0.0014413531061375014
-1178.432861328125,0.0014413426944906542
-1174.73876953125,0.001441332361166219
-1171.067626953125,0.0014413220450857993
-1167.41943359375,0.0014413117130231213
-1163.7938232421875,0.0014413014810131185
-1160.190673828125,0.0014412912876035412
-1156.60986328125,0.001441281114802665
-1153.051025390625,0.0014412709119065424
-1149.5140380859375,0.0014412608443455665
-1145.9986572265625,0.0014412507590732572
-1142.504638671875,0.0014412407193176717
-1139.031982421875,0.00144123069568454
-1135.580322265625,0.0014412207446258152
-1132.1495361328125,0.0014412108421681096
-1128.7393798828125,0.0014412009352241563
-1125.3497314453125,0.0014411910058956948
-1121.98046875,0.0014411811728346374
-1118.6312255859375,0.0014411713557091063
-1115.3018798828125,0.0014411615986338732
-1111.992431640625,0.001441151858054948
-1108.702392578125,0.0014411421354677463
-1105.431884765625,0.0014411324579766823
-1102.1805419921875,0.0014411228163288704
-1098.9483642578125,0.0014411132084681134
-1095.7349853515625,0.001441103588737492
-1092.5404052734375,0.0014410940553671436
-1089.3643798828125,0.0014410845355490025
-1086.206787109375,0.0014410750654534426
-1083.0673828125,0.0014410656770449811
-1079.9461669921875,0.0014410562344744219
-1076.8427734375,0.001441046774706579
-1073.75732421875,0.0014410374140100446
-1070.6893310546875,0.0014410281387391482
-1067.638916015625,0.0014410188465513588
-1064.6058349609375,0.0014410096068900554
-1061.5899658203125,0.0014410003481621985
-1058.591064453125,0.0014409911518212272
-1055.609130859375,0.0014409819769768603
-1052.6439208984375,0.0014409728237225617
-1049.6953125,0.0014409637343505647
-1046.76318359375,0.0014409546503527189
-1043.8472900390625,0.0014409455565412056
-1040.94775390625,0.001440936501984362
-1038.064208984375,0.001440927520048657
-1035.196533203125,0.0014409185454498364
-1032.3447265625,0.0014409096917927836
-1029.5086669921875,0.0014409007811229963
-1026.68798828125,0.0014408918346566894
-1023.8828125,0.001440883014973618
-1021.0929565429688,0.0014408741871592226
-1018.3181762695312,0.001440865363503953
-1015.5585327148438,0.0014408566337794997
-1012.813720703125,0.0014408479039615828
-1010.083740234375,0.0014408391818544048
-1007.3684692382812,0.0014408305138158607
-1004.6676635742188,0.0014408218481139037
-1001.9813842773438,0.0014408132295642819
-999.3093872070312,0.001440804676065256
-996.6516723632812,0.0014407960780776043
-994.0079956054688,0.0014407875093907596
-991.3782958984375,0.0014407790377190264
-988.7625122070312,0.0014407705327275562
-986.1604614257812,0.0014407621078343044
-983.5721435546875,0.0014407536692953818
-980.997314453125,0.0014407452132320531
-978.4359130859375,0.001440736868343556
-975.8878784179688,0.0014407284994349405
-973.3530883789062,0.0014407202227747977
-970.8314208984375,0.0014407119241974646
-968.3228149414062,0.0014407036468363455
-965.8270874023438,0.00144069536554976
-963.34423828125,0.0014406871555290922
-960.8740844726562,0.0014406789604158522
-958.4165649414062,0.001440670845400831
-955.9716186523438,0.0014406626873926002
-953.5391235351562,0.0014406546069590735
-951.1189575195312,0.0014406464647461741
-948.7109985351562,0.0014406383992200753
-946.3152465820312,0.0014406303755656242
-943.9315795898438,0.0014406223238253918
-941.5598754882812,0.0014406143143306607
-939.2000732421875,0.0014406063848874165
-936.85205078125,0.0014405984536216337
-934.5156860351562,0.001440590585443713
-932.1910400390625,0.0014405826780578546
-929.8778686523438,0.0014405747919349423
-927.576171875,0.0014405669748348234
-925.2858276367188,0.0014405591671745178
-923.0067749023438,0.001440551335026776
-920.7389526367188,0.0014405435890523803
-918.4822387695312,0.001440535867518689
-916.2365112304688,0.0014405281371526973
-914.0017700195312,0.001440520464220026
-911.7778930664062,0.001440512760350936
-909.5648193359375,0.0014405051456927562
-907.3624877929688,0.0014404975094445076
-905.1707763671875,0.001440489896001353
-902.9896240234375,0.0014404823264393112
-900.8189697265625,0.0014404747758036277
-898.65869140625,0.0014404673005929877
-896.5087890625,0.0014404597418259803
-894.369140625,0.0014404522425952213
-892.2396240234375,0.0014404448002370014
-890.1203002929688,0.0014404374054517023
-888.010986328125,0.001440429996600147
-885.9116821289062,0.0014404225419514768
-883.8222045898438,0.001440415194552172
-881.7426147460938,0.0014404078628547346
-879.6727905273438,0.00144040054111116
-877.6126708984375,0.0014403932124980182
-875.5621337890625,0.001440385963422314
-873.5211791992188,0.0014403786949996652
-871.48974609375,0.0014403714447556676
-869.4677124023438,0.0014403642577864584
-867.4550170898438,0.0014403570210946674
-865.45166015625,0.0014403498724454926
-863.45751953125,0.0014403427518353677
-861.4725341796875,0.0014403356145420083
-859.4966430664062,0.0014403284854734365
-857.5298461914062,0.001440321470149943
-855.5719604492188,0.0014403143712700816
-853.623046875,0.0014403073111308399
-851.6829833984375,0.0014403002876292902
-849.751708984375,0.001440293333991706
-847.8291625976562,0.001440286368203867
-845.9153442382812,0.001440279354282326
-844.0100708007812,0.0014402725146702101
-842.1134033203125,0.0014402655428072432
-840.2252807617188,0.0014402586788478864
-838.3455810546875,0.0014402517513800817
-836.4742431640625,0.0014402449594343501
-834.6112670898438,0.0014402381178595014
-832.7565307617188,0.0014402313040900428
-830.9100341796875,0.0014402245037325968
-829.0717163085938,0.001440217712300915
-827.2415771484375,0.0014402109627408802
-825.41943359375,0.001440204275427536
-823.6052856445312,0.001440197512175099
-821.7991333007812,0.0014401909216432078
-820.0008544921875,0.0014401841501659827
-818.21044921875,0.0014401775628118505
-816.4278564453125,0.0014401709004999922
-814.6530151367188,0.0014401642508991696
-812.8858642578125,0.0014401577085009804
-811.1263427734375,0.0014401511143707446
-809.3744506835938,0.0014401445710846522
-807.6300659179688,0.0014401380204616748
-805.8932495117188,0.0014401315060090715
-804.163818359375,0.00144012502338079
-802.4418334960938,0.0014401185674363373
-800.7271728515625,0.00144011207317185
-799.0198974609375,0.0014401056241436958
-797.31982421875,0.0014400992311936415
-795.6270141601562,0.0014400928206724489
-793.9413452148438,0.0014400864375360616
-792.2628173828125,0.0014400800680453454
-790.59130859375,0.001440073717387524
-788.9269409179688,0.0014400673561683274
-787.2694702148438,0.001440061067990855
-785.6190185546875,0.0014400548111703864
-783.9754638671875,0.001440048500842065
-782.3387451171875,0.0014400422278524113
-780.7088623046875,0.0014400360494010863
-779.0857543945312,0.0014400298133295146
-777.4694213867188,0.001440023607493385
-775.8597412109375,0.0014400174572213051
-774.2567138671875,0.0014400113007339026
-772.6602783203125,0.0014400051421435715
-771.0704345703125,0.0014399990150037077
-769.4871215820312,0.001439992949596485
-767.9102783203125,0.0014399867960999146
-766.3399047851562,0.0014399807507406125
-764.7759399414062,0.001439974634489246
-763.2183227539062,0.0014399686408152587
-761.6670532226562,0.0014399625927455151
-760.1220703125,0.0014399565960806955
-758.5833740234375,0.0014399506192768695
-757.0508422851562,0.0014399446129853102
-755.5245361328125,0.0014399386521170105
-754.0043334960938,0.001439932730877235
-752.4902954101562,0.0014399268532381813
-750.9822998046875,0.001439920921296835
