Wavelength (nm),Simulation
-376066.25,0.00225274925396783
-187700.34375,0.002252697328254764
-125059.7890625,0.0022526457746209387
-93767.203125,0.002252594423010266
-75000.5,0.0022525434567440793
-62493.05078125,0.002252492749476359
-53560.96484375,0.0022524422548874795
-46862.88671875,0.0022523920665952746
-41653.8515625,0.002252342134365785
-37486.99609375,0.0022522925170227605
-34077.9921875,0.002252243193254823
-31237.322265625,0.0022521940470454477
-28833.798828125,0.0022521451979993002
-26773.720703125,0.0022520966461163808
-24988.38671875,0.002252048325070465
-23426.267578125,0.0022520002117017404
-22047.96484375,0.0022519524555160396
-20822.837890625,0.002251904876019049
-19726.6953125,0.002251857582703403
-18740.185546875,0.0022518105085904887
-17847.646484375,0.0022517636602041985
-17036.259765625,0.002251717112678006
-16295.4384765625,0.0022516708525292055
-15616.361328125,0.002251624726990019
-14991.619140625,0.0022515789322120985
-14414.939453125,0.0022515332977044293
-13880.9833984375,0.002251487971015676
-13385.1708984375,0.0022514428227553367
-12923.5576171875,0.002251397976224949
-12492.7216796875,0.0022513532936616846
-12089.6845703125,0.0022513088912995303
-11711.83984375,0.002251264715098926
-11356.8974609375,0.002251220755491497
-11022.8369140625,0.0022511769675711293
-10707.8662109375,0.0022511334631138183
-10410.396484375,0.0022510901979745685
-10129.0078125,0.00225104711093754
-9862.4296875,0.0022510043848891366
-9609.5244140625,0.002250961696353107
-9369.2646484375,0.0022509192871483347
-9140.7265625,0.0022508771473802552
-8923.072265625,0.0022508351831048387
-8715.5419921875,0.0022507934266153455
-8517.4453125,0.002250751836919995
-8328.154296875,0.0022507104941539126
-8147.09326171875,0.0022506693713516823
-7973.73779296875,0.0022506284840619114
-7807.60595703125,0.0022505877225745025
-7648.25537109375,0.0022505471870311795
-7495.27978515625,0.0022505068933067435
-7348.30322265625,0.0022504668385741754
-7206.97998046875,0.002250426981624231
-7070.990234375,0.0022503872443876832
-6940.03759765625,0.0022503477840903007
-6813.8466796875,0.002250308489391015
-6692.1630859375,0.0022502693259306658
-6574.74951171875,0.0022502304806187273
-6461.384765625,0.002250191627369388
-6351.86328125,0.002250153214917606
-6245.99267578125,0.002250114824973248
-6143.59375,0.0022500767004425145
-6044.49755859375,0.002250038731724041
-5948.5478515625,0.002250000965681109
-5855.5966796875,0.0022499633465344533
-5765.505859375,0.002249925976491695
-5678.14501953125,0.0022498887322512993
-5593.39208984375,0.0022498516761164217
-5511.1318359375,0.0022498148151546132
-5431.25634765625,0.0022497781245750864
-5353.6630859375,0.002249741636888564
-5278.255859375,0.002249705304361912
-5204.94287109375,0.002249669105140097
-5133.638671875,0.0022496331364290903
-5064.26220703125,0.0022495973472338136
-4996.7353515625,0.002249561737119341
-4930.98583984375,0.002249526293255352
-4866.9443359375,0.00224949099346062
-4804.54443359375,0.0022494559316791713
-4743.724609375,0.002249420930896103
-4684.42578125,0.0022493861994409936
-4626.5908203125,0.002249351493755254
-4570.16650390625,0.00224931707653422
-4515.10205078125,0.0022492827481468336
-4461.34814453125,0.002249248686369119
-4408.85986328125,0.0022492147039654092
-4357.591796875,0.002249180951746315
-4307.50244140625,0.002249147256828728
-4258.5517578125,0.0022491138042736863
-4210.70068359375,0.002249080435224447
-4163.91357421875,0.0022490473045146866
-4118.154296875,0.0022490142568758016
-4073.39013671875,0.002248981404844912
-4029.588623046875,0.002248948714389051
-3986.718994140625,0.002248916127445592
-3944.751953125,0.0022488837403506546
-3903.6591796875,0.0022488514856907017
-3863.413818359375,0.0022488193867342765
-3823.989990234375,0.0022487874052078867
-3785.3623046875,0.0022487556411445245
-3747.50732421875,0.002248723990923058
-3710.402099609375,0.0022486925421810865
-3674.0244140625,0.0022486612101080294
-3638.35302734375,0.002248629941751639
-3603.36767578125,0.0022485988550856096
-3569.048583984375,0.002248567890090143
-3535.377197265625,0.0022485371035230917
-3502.335205078125,0.002248506489186758
-3469.9052734375,0.0022484759654237754
-3438.070068359375,0.0022484455999738765
-3406.81396484375,0.002248415398708565
-3376.12109375,0.0022483852459375077
-3345.97607421875,0.0022483552688765777
-3316.36474609375,0.00224832548948954
-3287.27294921875,0.002248295773492974
-3258.68701171875,0.00224826625364806
-3230.593994140625,0.002248236835140917
-3202.9814453125,0.0022482075431972557
-3175.836669921875,0.002248178426746258
-3149.148193359375,0.0022481494059789927
-3122.904541015625,0.0022481205436335433
-3097.094482421875,0.002248091747614318
-3071.707763671875,0.002248063175799473
-3046.73388671875,0.0022480346318198966
-3022.162841796875,0.0022480063479261014
-2997.98486328125,0.002247977988572635
-2974.1904296875,0.002247949907898039
-2950.77099609375,0.0022479218933322037
-2927.717529296875,0.002247894024466598
-2905.021484375,0.00224786630706399
-2882.674560546875,0.002247838726445627
-2860.668701171875,0.002247811200410484
-2838.996337890625,0.002247783766688396
-2817.650146484375,0.0022477565790257237
-2796.622314453125,0.0022477294262658685
-2775.906005859375,0.002247702399090911
-2755.494384765625,0.0022476754686870013
-2735.380859375,0.0022476487018152887
-2715.55859375,0.0022476220011610677
-2696.021728515625,0.0022475955001379066
-2676.763916015625,0.002247569017707834
-2657.779296875,0.0022475426375941168
-2639.062255859375,0.0022475165096287795
-2620.606689453125,0.0022474904122169984
-2602.40771484375,0.002247464419078738
-2584.45947265625,0.0022474385937132045
-2566.75732421875,0.002247412791616215
-2549.2958984375,0.002247387170231002
-2532.070556640625,0.002247361619412541
-2515.076416015625,0.002247336184393142
-2498.308837890625,0.002247310872131623
-2481.763427734375,0.002247285686651049
-2465.435546875,0.0022472605519480915
-2449.3212890625,0.0022472355550079634
-2433.416259765625,0.002247210704529184
-2417.71630859375,0.0022471859971410764
-2402.2177734375,0.002247161246804021
-2386.916748046875,0.002247136698163924
-2371.809326171875,0.0022471121863838106
-2356.89208984375,0.0022470879126169807
-2342.1611328125,0.002247063629934167
-2327.61328125,0.0022470394691393807
-2313.244873046875,0.0022470154015275007
-2299.052978515625,0.0022469914951644574
-2285.033935546875,0.002246967614788245
-2271.18505859375,0.0022469439302374894
-2257.5029296875,0.00224692023894538
-2243.984619140625,0.0022468966630174066
-2230.627197265625,0.002246873215936277
-2217.427978515625,0.0022468498946575104
-2204.384033203125,0.0022468266497082646
-2191.49267578125,0.002246803536759078
-2178.751220703125,0.0022467804420767856
-2166.156982421875,0.002246757484178738
-2153.70751953125,0.0022467346390352694
-2141.400390625,0.0022467118713086396
-2129.233154296875,0.0022466891535985055
-2117.203369140625,0.0022466665648439477
-2105.30859375,0.0022466440860169504
-2093.546875,0.0022466216151273534
-2081.915771484375,0.0022465993370187304
-2070.413330078125,0.002246577123387895
-2059.037109375,0.0022465550723106734
-2047.785400390625,0.0022465329502317733
-2036.656005859375,0.0022465110054939725
-2025.6468505859375,0.0022464891394777873
-2014.7559814453125,0.002246467513432054
-2003.981689453125,0.0022464457421210175
-1993.322021484375,0.0022464242124114048
-1982.775146484375,0.0022464026983591307
-1972.33935546875,0.002246381281839024
-1962.0126953125,0.0022463599218593053
-1951.793701171875,0.0022463386940971075
-1941.6806640625,0.0022463175826776286
-1931.6717529296875,0.002246296504747457
-1921.765625,0.0022462754929260457
-1911.96044921875,0.002246254612452303
-1902.2548828125,0.00224623380450248
-1892.6474609375,0.0022462130928887786
-1883.136474609375,0.002246192441512336
-1873.7205810546875,0.0022461718851672363
-1864.3984375,0.0022461513745981043
-1855.1685791015625,0.0022461310135348032
-1846.0296630859375,0.002246110739021788
-1836.9803466796875,0.0022460904416751544
-1828.019287109375,0.0022460703296070215
-1819.145263671875,0.0022460502186262034
-1810.35693359375,0.002246030251932103
-1801.6531982421875,0.002246010351455496
-1793.03271484375,0.002245990534158497
-1784.4942626953125,0.0022459707399125786
-1776.036865234375,0.0022459510436337537
-1767.6591796875,0.0022459315239349085
-1759.3602294921875,0.0022459119756396747
-1751.138671875,0.0022458924904087186
-1742.9937744140625,0.0022458731393524517
-1734.9241943359375,0.0022458538483159794
-1726.9290771484375,0.0022458346106666817
-1719.0072021484375,0.002245815441192042
-1711.15771484375,0.0022457963627256798
-1703.379638671875,0.002245777434961196
-1695.671875,0.002245758500455358
-1688.0335693359375,0.002245739616618406
-1680.4638671875,0.002245720842274089
-1672.961669921875,0.0022457021832939074
-1665.526123046875,0.002245683502567423
-1658.156494140625,0.0022456650074456335
-1650.8516845703125,0.0022456464852496968
-1643.6109619140625,0.002245628090922021
-1636.43359375,0.0022456097730325984
-1629.3184814453125,0.002245591459818632
-1622.2650146484375,0.0022455732534877424
-1615.2724609375,0.0022455551333809445
-1608.33984375,0.002245537149079807
-1601.4664306640625,0.002245519133572726
-1594.651611328125,0.002245501178411634
-1587.89453125,0.0022454833184993484
-1581.1944580078125,0.0022454655255656755
-1574.5506591796875,0.002245447826793494
-1567.9625244140625,0.0022454301579224786
-1561.42919921875,0.0022454125720136084
-1554.9501953125,0.0022453950875512413
-1548.524658203125,0.0022453776408187087
-1542.152099609375,0.002245360204850596
-1535.8316650390625,0.002245342951551427
-1529.5628662109375,0.0022453256954252385
-1523.3450927734375,0.0022453084835527765
-1517.1776123046875,0.002245291397156481
-1511.059814453125,0.0022452743692577405
-1504.9912109375,0.0022452573251580043
-1498.97119140625,0.0022452403614108573
-1492.9991455078125,0.0022452235056341025
-1487.074462890625,0.00224520674119182
-1481.196533203125,0.0022451899446737414
-1475.364990234375,0.002245173288854242
-1469.5792236328125,0.002245156701100669
-1463.838623046875,0.0022451401419434852
-1458.142578125,0.0022451236111652264
-1452.4908447265625,0.0022451072164100913
-1446.8826904296875,0.0022450908628641997
-1441.317626953125,0.002245074610547348
-1435.7952880859375,0.0022450583299603033
-1430.3150634765625,0.0022450421280948737
-1424.8765869140625,0.002245025954717101
-1419.479248046875,0.0022450099884728627
-1414.1226806640625,0.0022449939449205175
-1408.8062744140625,0.002244977977045306
-1403.52978515625,0.002244962097568816
-1398.292724609375,0.0022449462701747205
-1393.094482421875,0.0022449304647443914
-1387.934814453125,0.002244914791205388
-1382.813232421875,0.0022448990669974994
-1377.729248046875,0.0022448834993629915
-1372.6826171875,0.0022448679558668794
-1367.6727294921875,0.002244852541326342
-1362.6993408203125,0.0022448370209900426
-1357.761962890625,0.0022448216723408025
-1352.8602294921875,0.002244806375339033
-1347.9937744140625,0.0022447910210357555
-1343.1622314453125,0.0022447758589697934
-1338.3651123046875,0.002244760707994446
-1333.6021728515625,0.002244745615190459
-1328.873046875,0.002244730611002656
-1324.1773681640625,0.0022447156085545566
-1319.5146484375,0.002244700663951623
-1314.884765625,0.0022446857654508517
-1310.287109375,0.002244670951434466
-1305.7216796875,0.002244656179062251
-1301.1878662109375,0.002244641464317738
-1296.6854248046875,0.00224462676936236
-1292.2139892578125,0.002244612164762871
-1287.7733154296875,0.0022445976448652303
-1283.3631591796875,0.002244583149758376
-1278.9830322265625,0.002244568650193529
-1274.6326904296875,0.0022445542136929593
-1270.311767578125,0.002244539933657039
-1266.0201416015625,0.002244525610019782
-1261.7574462890625,0.002244511305193076
-1257.5233154296875,0.002244497065496548
-1253.3175048828125,0.0022444829314870506
-1249.1397705078125,0.002244468830749397
-1244.98974609375,0.00224445477002494
-1240.8671875,0.002244440777475142
-1236.7718505859375,0.0022444268835448283
-1232.7034912109375,0.0022444129434036203
-1228.6617431640625,0.00224439905915041
-1224.646484375,0.0022443852327423664
-1220.6573486328125,0.0022443715430098357
-1216.694091796875,0.002244357791735267
-1212.756591796875,0.0022443440975447432
-1208.844482421875,0.002244330568626122
-1204.9573974609375,0.0022443169239084377
-1201.0953369140625,0.0022443034514214705
-1197.2579345703125,0.002244289938268919
-1193.4449462890625,0.00224427654896156
-1189.65625,0.002244263185967229
-1185.8914794921875,0.002244249823734018
-1182.150390625,0.0022442365077117
-1178.432861328125,0.002244223317383012
-1174.73876953125,0.002244210070840132
-1171.067626953125,0.002244197003595518
-1167.41943359375,0.002244183840014783
-1163.7938232421875,0.002244170742869002
-1160.190673828125,0.0022441577585865335
-1156.60986328125,0.0022441448025742597
-1153.051025390625,0.0022441318878799587
-1149.5140380859375,0.002244118968401472
-1145.9986572265625,0.0022441061110086806
-1142.504638671875,0.002244093362673597
-1139.031982421875,0.002244080613142467
-1135.580322265625,0.0022440679342868204
-1132.1495361328125,0.0022440552054146783
-1128.7393798828125,0.002244042600061536
-1125.3497314453125,0.0022440300413542123
-1121.98046875,0.0022440175145052223
-1118.6312255859375,0.002244004994723782
-1115.3018798828125,0.002243992555077467
-1111.992431640625,0.002243980181757375
-1108.702392578125,0.00224396776081288
-1105.431884765625,0.0022439554665405984
-1102.1805419921875,0.0022439432176093585
-1098.9483642578125,0.002243930923989466
-1095.7349853515625,0.0022439187560632044
-1092.5404052734375,0.0022439066057514476
-1089.3643798828125,0.002243894497410055
-1086.206787109375,0.0022438823982021093
-1083.0673828125,0.002243870407616947
-1079.9461669921875,0.0022438584227945538
-1076.8427734375,0.002243846477985359
-1073.75732421875,0.0022438344972947636
-1070.6893310546875,0.002243822621965006
-1067.638916015625,0.0022438107882794176
-1064.6058349609375,0.0022437989923236646
-1061.5899658203125,0.0022437872568226336
-1058.591064453125,0.0022437755782969155
-1055.609130859375,0.0022437638035438076
-1052.6439208984375,0.0022437522042833636
-1049.6953125,0.002243740587734609
-1046.76318359375,0.0022437290477328397
-1043.8472900390625,0.0022437175087096544
-1040.94775390625,0.002243706001544803
-1038.064208984375,0.0022436945589664695
-1035.196533203125,0.0022436831849977227
-1032.3447265625,0.0022436718285347495
-1029.5086669921875,0.0022436604957752457
-1026.68798828125,0.002243649208030589
-1023.8828125,0.0022436379352908814
-1021.0929565429688,0.0022436266954968223
-1018.3181762695312,0.002243615494193719
-1015.5585327148438,0.0022436043584557193
-1012.813720703125,0.002243593215215244
-1010.083740234375,0.0022435821292762777
-1007.3684692382812,0.002243571117600935
-1004.6676635742188,0.0022435601505055125
-1001.9813842773438,0.0022435491505731734
-999.3093872070312,0.0022435381667330976
-996.6516723632812,0.0022435273320726592
-994.0079956054688,0.0022435164616395535
-991.3782958984375,0.0022435057076578987
-988.7625122070312,0.0022434948652775228
-986.1604614257812,0.00224348407334857
-983.5721435546875,0.002243473361554743
-980.997314453125,0.002243462657372121
-978.4359130859375,0.0022434520219078162
-975.8878784179688,0.0022434413973166636
-973.3530883789062,0.0022434307920797198
-970.8314208984375,0.0022434202379465872
-968.3228149414062,0.0022434097216520225
-965.8270874023438,0.002243399239607884
-963.34423828125,0.002243388829652739
-960.8740844726562,0.002243378394363152
-958.4165649414062,0.002243367990279509
-955.9716186523438,0.0022433576601332953
-953.5391235351562,0.002243347342382474
-951.1189575195312,0.002243337008213195
-948.7109985351562,0.002243326772119741
-946.3152465820312,0.002243316530589712
-943.9315795898438,0.0022433063938768617
-941.5598754882812,0.002243296181813072
-939.2000732421875,0.002243286084243567
-936.85205078125,0.0022432759622094713
-934.5156860351562,0.0022432659208541593
-932.1910400390625,0.002243255862319267
-929.8778686523438,0.0022432458585850586
-927.576171875,0.0022432359484686835
-925.2858276367188,0.0022432259538679223
-923.0067749023438,0.002243216104641195
-920.7389526367188,0.002243206173757101
-918.4822387695312,0.0022431963840065113
-916.2365112304688,0.0022431866055639994
-914.0017700195312,0.0022431768498463738
-911.7778930664062,0.00224316706183549
-909.5648193359375,0.0022431573060091325
-907.3624877929688,0.0022431476521729363
-905.1707763671875,0.002243138013559151
-902.9896240234375,0.002243128388428074
-900.8189697265625,0.002243118777758289
-898.65869140625,0.0022431091873125644
-896.5087890625,0.0022430997102738095
-894.369140625,0.0022430902124673355
-892.2396240234375,0.0022430806592077888
-890.1203002929688,0.0022430712291410474
-888.010986328125,0.002243061785700331
-885.9116821289062,0.00224305236139636
-883.8222045898438,0.0022430430543049613
-881.7426147460938,0.0022430337469960993
-879.6727905273438,0.0022430244318585686
-877.6126708984375,0.002243015140424507
-875.5621337890625,0.0022430058974847017
-873.5211791992188,0.0022429966883603975
-871.48974609375,0.0022429875220763094
-869.4677124023438,0.00224297831403932
-867.4550170898438,0.0022429691779825922
-865.45166015625,0.002242960070087327
-863.45751953125,0.0022429510274309702
-861.4725341796875,0.002242942029463265
-859.4966430664062,0.002242932965495532
-857.5298461914062,0.0022429239804668774
-855.5719604492188,0.0022429150167495994
-853.623046875,0.002242906073582578
-851.6829833984375,0.0022428971158455335
-849.751708984375,0.002242888273146431
-847.8291625976562,0.0022428793991326524
-845.9153442382812,0.002242870501632866
-844.0100708007812,0.0022428617330886563
-842.1134033203125,0.0022428530143434795
-840.2252807617188,0.002242844224814087
-838.3455810546875,0.002242835513027727
-836.4742431640625,0.0022428267681869865
-834.6112670898438,0.0022428180610760823
-832.7565307617188,0.0022428094582386993
-830.9100341796875,0.002242800835394718
-829.0717163085938,0.0022427922717006793
-827.2415771484375,0.0022427836779967437
-825.41943359375,0.0022427751551857555
-823.6052856445312,0.0022427665127701005
-821.7991333007812,0.00224275810902012
-820.0008544921875,0.002242749616219029
-818.21044921875,0.0022427411534278363
-816.4278564453125,0.0022427328215493857
-814.6530151367188,0.0022427243974666115
-812.8858642578125,0.0022427160376441626
-811.1263427734375,0.002242707643571286
-809.3744506835938,0.002242699349640134
-807.6300659179688,0.0022426910419000804
-805.8932495117188,0.0022426828264730816
-804.163818359375,0.0022426745177544435
-802.4418334960938,0.002242666362890898
-800.7271728515625,0.0022426581223469193
-799.0198974609375,0.0022426499700929307
-797.31982421875,0.0022426418015292137
-795.6270141601562,0.002242633621766152
-793.9413452148438,0.00224262557128486
-792.2628173828125,0.002242617469591024
-790.59130859375,0.0022426094643420423
-788.9269409179688,0.002242601439956313
-787.2694702148438,0.0022425933788193324
-785.6190185546875,0.0022425854656659425
-783.9754638671875,0.00224257746759324
-782.3387451171875,0.0022425696053261987
-780.7088623046875,0.002242561608775738
-779.0857543945312,0.002242553731612479
-777.4694213867188,0.002242545877282837
-775.8597412109375,0.002242537995444124
-774.2567138671875,0.0022425301946103872
-772.6602783203125,0.0022425224105213043
-771.0704345703125,0.002242514622191692
-769.4871215820312,0.00224250689486046
-767.9102783203125,0.002242499211891684
-766.3399047851562,0.0022424914109492166
-764.7759399414062,0.0022424837512489857
-763.2183227539062,0.0022424760779573153
-761.6670532226562,0.002242468474036351
-760.1220703125,0.002242460859350966
-758.5833740234375,0.0022424532148731476
-757.0508422851562,0.0022424456666227184
-755.5245361328125,0.0022424380397594043
-754.0043334960938,0.002242430534457923
-752.4902954101562,0.0022424230993969996
-750.9822998046875,0.002242415565716593
-749.4802856445312,0.0022424080879241853
-747.9843139648438,0.00224240069363758
-746.4943237304688,0.002242393214431662
